,Date,High,Low,Open,Close,Volume,Adj Close
0,16/02/2017,22400,22400,22400.0,22400,1200,12600
1,17/02/2017,20000,20000,20000.0,20000,800,11300
2,20/02/2017,20000,20000,20000.0,20000,1000,11300
3,21/02/2017,20000,20000,-,20000,-,11300
4,22/02/2017,20000,20000,-,20000,-,11300
5,23/02/2017,20000,20000,-,20000,-,11300
6,24/02/2017,18500,18500,18500.0,18500,100,10400
7,27/02/2017,18500,18500,-,18500,-,10400
8,28/02/2017,18500,18500,-,18500,-,10400
9,01/03/2017,18500,18500,-,18500,-,10400
10,02/03/2017,18500,18500,-,18500,-,10400
11,03/03/2017,18500,18500,-,18500,-,10400
12,06/03/2017,15800,15800,15800.0,15800,100,8900
13,07/03/2017,15800,15800,-,15800,-,8900
14,08/03/2017,15800,15800,-,15800,-,8900
15,09/03/2017,15800,15800,-,15800,-,8900
16,10/03/2017,15800,15800,-,15800,-,8900
17,13/03/2017,15800,15800,-,15800,-,8900
18,14/03/2017,15800,15800,-,15800,-,8900
19,15/03/2017,15800,15800,-,15800,-,8900
20,16/03/2017,15800,15800,-,15800,-,8900
21,17/03/2017,15800,15800,-,15800,-,8900
22,20/03/2017,15800,15800,-,15800,-,8900
23,21/03/2017,15800,15800,-,15800,-,8900
24,22/03/2017,15800,15800,-,15800,-,8900
25,23/03/2017,15800,15800,-,15800,-,8900
26,24/03/2017,15800,15800,-,15800,-,8900
27,27/03/2017,15800,15800,-,15800,-,8900
28,28/03/2017,15800,15800,-,15800,-,8900
29,29/03/2017,15800,15800,-,15800,-,8900
30,30/03/2017,15800,15800,-,15800,-,8900
31,31/03/2017,15800,15800,-,15800,-,8900
32,03/04/2017,15800,15800,-,15800,-,8900
33,04/04/2017,15800,15800,-,15800,-,8900
34,05/04/2017,15800,15800,-,15800,-,8900
35,07/04/2017,15800,15800,-,15800,-,8900
36,10/04/2017,15800,15800,-,15800,-,8900
37,11/04/2017,15800,15800,-,15800,-,8900
38,12/04/2017,15800,15800,-,15800,-,8900
39,13/04/2017,15800,15800,-,15800,-,8900
40,14/04/2017,15800,15800,-,15800,-,8900
41,17/04/2017,15800,15800,-,15800,-,8900
42,18/04/2017,15800,15800,-,15800,-,8900
43,19/04/2017,15800,15800,-,15800,-,8900
44,20/04/2017,15800,15800,-,15800,-,8900
45,21/04/2017,15800,15800,-,15800,-,8900
46,24/04/2017,15800,15800,-,15800,-,8900
47,25/04/2017,15800,15800,-,15800,-,8900
48,26/04/2017,15800,15800,-,15800,-,8900
49,27/04/2017,15800,15800,-,15800,-,8900
50,28/04/2017,15800,15800,-,15800,-,8900
51,03/05/2017,15800,15800,-,15800,-,8900
52,04/05/2017,15800,15800,-,15800,-,8900
53,05/05/2017,15800,15800,-,15800,-,8900
54,08/05/2017,15800,15800,-,15800,-,8900
55,09/05/2017,15800,15800,-,15800,-,8900
56,10/05/2017,15800,15800,-,15800,-,8900
57,11/05/2017,15800,15800,-,15800,-,8900
58,12/05/2017,15800,15800,-,15800,-,8900
59,15/05/2017,15800,15800,-,15800,-,8900
60,16/05/2017,15800,15800,-,15800,-,8900
61,17/05/2017,15800,15800,-,15800,-,8900
62,18/05/2017,15800,15800,-,15800,-,8900
63,19/05/2017,15800,15800,-,15800,-,8900
64,22/05/2017,15800,15800,-,15800,-,8900
65,23/05/2017,15800,15800,-,15800,-,8900
66,24/05/2017,15800,15800,-,15800,-,8900
67,25/05/2017,15800,15800,-,15800,-,8900
68,26/05/2017,15800,15800,-,15800,-,8900
69,29/05/2017,17100,17100,17100.0,17100,3000,9700
70,30/05/2017,17100,17100,-,17100,-,9700
71,31/05/2017,17100,17100,-,17100,-,9700
72,01/06/2017,17100,17100,-,17100,-,9700
73,02/06/2017,17100,17100,-,17100,-,9700
74,05/06/2017,17100,17100,-,17100,-,9700
75,06/06/2017,17100,17100,-,17100,-,9700
76,07/06/2017,17100,17100,-,17100,-,9700
77,08/06/2017,17100,17100,-,17100,-,9700
78,09/06/2017,17100,17100,-,17100,-,9700
79,12/06/2017,17100,17100,-,17100,-,9700
80,13/06/2017,17100,17100,-,17100,-,9700
81,14/06/2017,17100,17100,-,17100,-,9700
82,15/06/2017,17100,17100,-,17100,-,9700
83,16/06/2017,17100,17100,-,17100,-,9700
84,19/06/2017,17100,17100,-,17100,-,9700
85,20/06/2017,17100,17100,-,17100,-,9700
86,21/06/2017,17100,17100,-,17100,-,9700
87,22/06/2017,17100,17100,-,17100,-,9700
88,23/06/2017,17100,17100,-,17100,-,9700
89,26/06/2017,17100,17100,-,17100,-,9700
90,27/06/2017,17100,17100,-,17100,-,9700
91,28/06/2017,17100,17100,-,17100,-,9700
92,29/06/2017,17100,17100,-,17100,-,9700
93,30/06/2017,17100,17100,-,17100,-,9700
94,03/07/2017,17100,17100,-,17100,-,9700
95,04/07/2017,17100,17100,-,17100,-,9700
96,05/07/2017,17100,17100,-,17100,-,9700
97,06/07/2017,17100,17100,-,17100,-,9700
98,07/07/2017,17100,17100,-,17100,-,9700
99,10/07/2017,17100,17100,-,17100,-,9700
100,11/07/2017,17100,17100,-,17100,-,9700
101,12/07/2017,17100,17100,-,17100,-,9700
102,13/07/2017,17100,17100,-,17100,-,9700
103,14/07/2017,17100,17100,-,17100,-,9700
104,17/07/2017,17100,17100,-,17100,-,9700
105,18/07/2017,17100,17100,-,17100,-,9700
106,19/07/2017,17100,17100,-,17100,-,9700
107,20/07/2017,17100,17100,-,17100,-,9700
108,21/07/2017,17100,17100,-,17100,-,9700
109,24/07/2017,17100,17100,-,17100,-,9700
110,25/07/2017,17100,17100,-,17100,-,9700
111,26/07/2017,16400,16400,-,16400,-,9700
112,27/07/2017,16400,16400,-,16400,-,9700
113,28/07/2017,16400,16400,-,16400,-,9700
114,31/07/2017,16400,16400,-,16400,-,9700
115,01/08/2017,16400,16400,-,16400,-,9700
116,02/08/2017,16400,16400,-,16400,-,9700
117,03/08/2017,16400,16400,-,16400,-,9700
118,04/08/2017,16400,16400,-,16400,-,9700
119,07/08/2017,16400,16400,-,16400,-,9700
120,08/08/2017,16400,16400,-,16400,-,9700
121,09/08/2017,16400,16400,-,16400,-,9700
122,10/08/2017,16400,16400,-,16400,-,9700
123,11/08/2017,16400,16400,-,16400,-,9700
124,14/08/2017,16400,16400,-,16400,-,9700
125,15/08/2017,16400,16400,-,16400,-,9700
126,16/08/2017,16400,16400,-,16400,-,9700
127,17/08/2017,16400,16400,-,16400,-,9700
128,18/08/2017,16400,16400,-,16400,-,9700
129,21/08/2017,16400,16400,-,16400,-,9700
130,22/08/2017,16400,16400,-,16400,-,9700
131,23/08/2017,16400,16400,-,16400,-,9700
132,24/08/2017,16400,16400,-,16400,-,9700
133,25/08/2017,16400,16400,-,16400,-,9700
134,28/08/2017,16400,16400,-,16400,-,9700
135,29/08/2017,16400,16400,-,16400,-,9700
136,30/08/2017,16400,16400,-,16400,-,9700
137,31/08/2017,16400,16400,-,16400,-,9700
138,01/09/2017,16400,16400,-,16400,-,9700
139,05/09/2017,16400,16400,-,16400,-,9700
140,06/09/2017,16400,16400,-,16400,-,9700
141,07/09/2017,16400,16400,-,16400,-,9700
142,08/09/2017,16400,16400,-,16400,-,9700
143,11/09/2017,16400,16400,-,16400,-,9700
144,12/09/2017,16400,16400,-,16400,-,9700
145,13/09/2017,16400,16400,-,16400,-,9700
146,14/09/2017,16400,16400,-,16400,-,9700
147,15/09/2017,16400,16400,-,16400,-,9700
148,18/09/2017,16400,16400,-,16400,-,9700
149,19/09/2017,16400,16400,-,16400,-,9700
150,20/09/2017,16400,16400,-,16400,-,9700
151,21/09/2017,16400,16400,-,16400,-,9700
152,22/09/2017,16400,16400,-,16400,-,9700
153,25/09/2017,16400,16400,-,16400,-,9700
154,26/09/2017,16400,16400,-,16400,-,9700
155,27/09/2017,16400,16400,-,16400,-,9700
156,28/09/2017,16400,16400,-,16400,-,9700
157,29/09/2017,16400,16400,-,16400,-,9700
158,02/10/2017,16400,16400,-,16400,-,9700
159,03/10/2017,16400,16400,-,16400,-,9700
160,04/10/2017,16400,16400,-,16400,-,9700
161,05/10/2017,16400,16400,-,16400,-,9700
162,06/10/2017,16400,16400,-,16400,-,9700
163,09/10/2017,16400,16400,-,16400,-,9700
164,10/10/2017,16400,16400,-,16400,-,9700
165,11/10/2017,16400,16400,-,16400,-,9700
166,12/10/2017,16400,16400,-,16400,-,9700
167,13/10/2017,16400,16400,-,16400,-,9700
168,16/10/2017,16400,16400,16400.0,16400,-,9700
169,17/10/2017,16400,16400,-,16400,-,9700
170,18/10/2017,16400,16400,-,16400,-,9700
171,19/10/2017,16400,16400,-,16400,-,9700
172,20/10/2017,16400,16400,-,16400,-,9700
173,23/10/2017,16400,16400,-,16400,-,9700
174,24/10/2017,16400,16400,-,16400,-,9700
175,25/10/2017,16400,16400,-,16400,-,9700
176,26/10/2017,16400,16400,-,16400,-,9700
177,27/10/2017,16400,16400,-,16400,-,9700
178,30/10/2017,16400,16400,-,16400,-,9700
179,31/10/2017,16400,16400,-,16400,-,9700
180,01/11/2017,16400,16400,-,16400,-,9700
181,02/11/2017,16400,16400,-,16400,-,9700
182,03/11/2017,16400,16400,-,16400,-,9700
183,06/11/2017,16400,16400,-,16400,-,9700
184,07/11/2017,16400,16400,-,16400,-,9700
185,08/11/2017,16400,16400,-,16400,-,9700
186,09/11/2017,16400,16400,-,16400,-,9700
187,10/11/2017,16400,16400,-,16400,-,9700
188,13/11/2017,16400,16400,-,16400,-,9700
189,14/11/2017,16400,16400,-,16400,-,9700
190,15/11/2017,16400,16400,-,16400,-,9700
191,16/11/2017,16400,16400,-,16400,-,9700
192,17/11/2017,16400,16400,-,16400,-,9700
193,20/11/2017,16400,16400,-,16400,-,9700
194,21/11/2017,16400,16400,-,16400,-,9700
195,22/11/2017,16400,16400,-,16400,-,9700
196,23/11/2017,16400,16400,-,16400,-,9700
197,24/11/2017,16400,16400,-,16400,-,9700
198,27/11/2017,16400,16400,-,16400,-,9700
199,28/11/2017,16400,16400,-,16400,-,9700
200,29/11/2017,16400,16400,-,16400,-,9700
201,30/11/2017,16400,16400,-,16400,-,9700
202,01/12/2017,16400,16400,-,16400,-,9700
203,04/12/2017,16400,16400,-,16400,-,9700
204,05/12/2017,16400,16400,-,16400,-,9700
205,06/12/2017,16400,16400,-,16400,-,9700
206,07/12/2017,16400,16400,-,16400,-,9700
207,08/12/2017,16400,16400,-,16400,-,9700
208,11/12/2017,16400,16400,-,16400,-,9700
209,12/12/2017,16400,16400,-,16400,-,9700
210,13/12/2017,16400,16400,-,16400,-,9700
211,14/12/2017,16400,16400,-,16400,-,9700
212,15/12/2017,16400,16400,-,16400,-,9700
213,18/12/2017,16400,16400,-,16400,-,9700
214,19/12/2017,16400,16400,-,16400,-,9700
215,20/12/2017,16400,16400,-,16400,-,9700
216,21/12/2017,16400,16400,-,16400,-,9700
217,22/12/2017,16400,16400,-,16400,-,9700
218,25/12/2017,16400,16400,-,16400,-,9700
219,26/12/2017,16400,16400,16400.0,16400,-,9700
220,27/12/2017,16400,16400,-,16400,-,9700
221,28/12/2017,16400,16400,-,16400,-,9700
222,29/12/2017,16400,16400,-,16400,-,9700
223,02/01/2018,16400,16400,-,16400,-,9700
224,03/01/2018,16400,16400,-,16400,-,9700
225,04/01/2018,16400,16400,-,16400,-,9700
226,05/01/2018,16400,16400,-,16400,-,9700
227,08/01/2018,16400,16400,-,16400,-,9700
228,09/01/2018,16400,16400,-,16400,-,9700
229,10/01/2018,16400,16400,-,16400,-,9700
230,11/01/2018,16400,16400,-,16400,-,9700
231,12/01/2018,16400,16400,-,16400,-,9700
232,15/01/2018,16400,16400,-,16400,-,9700
233,16/01/2018,16400,16400,-,16400,-,9700
234,17/01/2018,16400,16400,-,16400,-,9700
235,18/01/2018,16400,16400,-,16400,-,9700
236,19/01/2018,16400,16400,-,16400,-,9700
237,22/01/2018,16400,16400,-,16400,-,9700
238,23/01/2018,16400,16400,-,16400,-,9700
239,24/01/2018,16400,16400,-,16400,-,9700
240,25/01/2018,16400,16400,-,16400,-,9700
241,26/01/2018,16400,16400,16400.0,16400,-,9700
242,29/01/2018,16400,16400,-,16400,-,9700
243,30/01/2018,16400,16400,-,16400,-,9700
244,31/01/2018,16400,16400,-,16400,-,9700
245,01/02/2018,16400,16400,-,16400,-,9700
246,02/02/2018,16400,16400,-,16400,-,9700
247,05/02/2018,16400,16400,-,16400,-,9700
248,06/02/2018,16400,16400,-,16400,-,9700
249,07/02/2018,16400,16400,-,16400,-,9700
250,08/02/2018,16400,16400,16400.0,16400,-,9700
251,09/02/2018,16400,16400,-,16400,-,-
252,12/02/2018,16400,16400,-,16400,-,9700
253,13/02/2018,16400,16400,-,16400,-,-
254,21/02/2018,16400,16400,-,16400,-,-
255,22/02/2018,16400,16400,16400.0,16400,-,9700
256,23/02/2018,16400,16400,-,16400,-,9700
257,26/02/2018,16400,16400,-,16400,-,9700
258,27/02/2018,16400,16400,-,16400,-,9700
259,28/02/2018,16400,16400,-,16400,-,-
260,01/03/2018,16400,16400,-,16400,-,9700
261,02/03/2018,16400,16400,16400.0,16400,-,9700
262,05/03/2018,17800,17800,17800.0,17800,1000,10500
263,06/03/2018,17800,17800,-,17800,-,10500
264,07/03/2018,17800,17800,-,17800,-,10500
265,08/03/2018,17800,17800,-,17800,-,10500
266,09/03/2018,17800,17800,-,17800,-,10500
267,12/03/2018,17800,17800,-,17800,-,10500
268,13/03/2018,17800,17800,-,17800,-,10500
269,14/03/2018,17800,17800,-,17800,12679,10500
270,15/03/2018,17800,17800,-,17800,-,10500
271,16/03/2018,17800,17800,-,17800,-,10500
272,19/03/2018,17800,17800,-,17800,18997,10500
273,20/03/2018,17800,17800,-,17800,-,10500
274,21/03/2018,17800,17800,-,17800,-,10500
275,22/03/2018,17800,17800,-,17800,-,10500
276,23/03/2018,17800,17800,-,17800,-,10500
277,26/03/2018,17800,17800,-,17800,-,10500
278,27/03/2018,17800,17800,-,17800,-,10500
279,28/03/2018,17800,17800,-,17800,-,10500
280,29/03/2018,17800,17800,17800.0,17800,-,10500
281,30/03/2018,17800,17800,-,17800,-,10500
282,02/04/2018,17800,17800,-,17800,2628,10500
283,03/04/2018,17800,17800,-,17800,-,10500
284,04/04/2018,17800,17800,-,17800,-,10500
285,05/04/2018,17800,17800,-,17800,-,10500
286,06/04/2018,17800,17800,-,17800,-,10500
287,09/04/2018,17800,17800,-,17800,-,10500
288,10/04/2018,17800,17800,-,17800,-,10500
289,11/04/2018,17800,17800,-,17800,-,10500
290,12/04/2018,17800,17800,-,17800,-,10500
291,13/04/2018,17800,17800,-,17800,-,10500
292,16/04/2018,17800,17800,-,17800,-,10500
293,17/04/2018,17800,17800,17800.0,17800,-,10500
294,18/04/2018,17800,17800,-,17800,-,10500
295,19/04/2018,17800,17800,-,17800,-,10500
296,20/04/2018,17800,17800,-,17800,-,10500
297,23/04/2018,17800,17800,-,17800,-,10500
298,24/04/2018,17800,17800,-,17800,-,10500
299,26/04/2018,17800,17800,-,17800,-,10500
300,27/04/2018,17800,17800,-,17800,-,10500
301,02/05/2018,17800,17800,-,17800,-,10500
302,03/05/2018,17800,17800,-,17800,-,10500
303,04/05/2018,17800,17800,-,17800,-,10500
304,07/05/2018,17800,17800,-,17800,-,10500
305,08/05/2018,17800,17800,-,17800,-,10500
306,09/05/2018,17800,17800,-,17800,-,10500
307,10/05/2018,17800,17800,-,17800,-,10500
308,11/05/2018,17800,17800,-,17800,-,10500
309,14/05/2018,17800,17800,-,17800,-,10500
310,15/05/2018,17800,17800,-,17800,-,10500
311,16/05/2018,17800,17800,-,17800,-,10500
312,17/05/2018,17800,17800,-,17800,-,10500
313,18/05/2018,17800,17800,-,17800,-,10500
314,21/05/2018,17800,17800,-,17800,-,10500
315,22/05/2018,17800,17800,-,17800,-,10500
316,23/05/2018,17800,17800,-,17800,-,10500
317,24/05/2018,17800,17800,-,17800,-,10500
318,25/05/2018,17800,17800,-,17800,-,10500
319,28/05/2018,17800,17800,-,17800,-,10500
320,29/05/2018,17800,17800,-,17800,-,10500
321,30/05/2018,17800,17800,-,17800,-,10500
322,31/05/2018,17800,17800,-,17800,-,10500
323,01/06/2018,17800,17800,-,17800,-,10500
324,04/06/2018,17800,17800,-,17800,-,10500
325,05/06/2018,17800,17800,-,17800,-,10500
326,06/06/2018,17800,17800,-,17800,-,10500
327,07/06/2018,17800,17800,17800.0,17800,-,10500
328,08/06/2018,17800,17800,-,17800,-,10500
329,11/06/2018,17800,17800,-,17800,-,10500
330,12/06/2018,17800,17800,17800.0,17800,-,10500
331,13/06/2018,17800,17800,-,17800,-,10500
332,14/06/2018,17800,17800,-,17800,-,10500
333,15/06/2018,17800,17800,17800.0,17800,-,10500
334,18/06/2018,17800,17800,17800.0,17800,-,10500
335,19/06/2018,17800,17800,-,17800,-,10500
336,20/06/2018,17800,17800,-,17800,-,10500
337,21/06/2018,17800,17800,-,17800,-,10500
338,22/06/2018,17800,17800,-,17800,-,10500
339,25/06/2018,17800,17800,17800.0,17800,-,10500
340,26/06/2018,17800,17800,-,17800,-,10500
341,27/06/2018,17800,17800,-,17800,-,10500
342,28/06/2018,17800,17800,17800.0,17800,-,10500
343,29/06/2018,17800,17800,-,17800,-,10500
344,02/07/2018,17800,17800,-,17800,-,10500
345,03/07/2018,17800,17800,17800.0,17800,-,10500
346,04/07/2018,17800,17800,-,17800,-,10500
347,05/07/2018,17800,17800,-,17800,-,10500
348,06/07/2018,17800,17800,-,17800,-,10500
349,09/07/2018,17800,17800,-,17800,-,10500
350,10/07/2018,17800,17800,-,17800,-,10500
351,11/07/2018,17800,17800,-,17800,-,10500
352,12/07/2018,17800,17800,17800.0,17800,-,10500
353,13/07/2018,17800,17800,-,17800,-,10500
354,16/07/2018,17800,17800,-,17800,-,10500
355,17/07/2018,17800,17800,-,17800,-,10500
356,18/07/2018,17800,17800,-,17800,-,10500
357,19/07/2018,17800,17800,17800.0,17800,-,10500
358,20/07/2018,17800,17800,-,17800,-,10500
359,23/07/2018,16300,16300,-,16300,-,10500
360,24/07/2018,16300,16300,-,16300,-,10500
361,25/07/2018,16300,16300,-,16300,-,10500
362,26/07/2018,16300,16300,16300.0,16300,-,10500
363,27/07/2018,16300,16300,16300.0,16300,-,10500
364,30/07/2018,16300,16300,-,16300,-,10500
365,31/07/2018,16300,16300,-,16300,-,10500
366,01/08/2018,16300,16300,-,16300,-,10500
367,02/08/2018,16300,16300,-,16300,-,10500
368,03/08/2018,16300,16300,-,16300,-,10500
369,06/08/2018,16300,16300,16300.0,16300,-,10500
370,07/08/2018,16300,16300,-,16300,-,10500
371,08/08/2018,16300,16300,-,16300,-,10500
372,09/08/2018,16300,16300,-,16300,-,10500
373,10/08/2018,16300,16300,-,16300,-,10500
374,13/08/2018,16300,16300,-,16300,-,10500
375,14/08/2018,16300,16300,-,16300,-,10500
376,15/08/2018,16300,16300,-,16300,-,10500
377,16/08/2018,16300,16300,16300.0,16300,-,10500
378,17/08/2018,16300,16300,-,16300,-,10500
379,20/08/2018,16300,16300,-,16300,-,10500
380,21/08/2018,16300,16300,16300.0,16300,-,10500
381,22/08/2018,16300,16300,-,16300,-,10500
382,23/08/2018,16300,16300,-,16300,-,10500
383,24/08/2018,16300,16300,-,16300,-,10500
384,27/08/2018,16300,16300,-,16300,-,10500
385,28/08/2018,16300,16300,-,16300,-,10500
386,29/08/2018,16300,16300,-,16300,-,10500
387,30/08/2018,16300,16300,-,16300,-,10500
388,31/08/2018,16300,16300,-,16300,-,10500
389,04/09/2018,16300,16300,16300.0,16300,-,10500
390,05/09/2018,16300,16300,-,16300,-,10500
391,06/09/2018,16300,16300,-,16300,-,10500
392,07/09/2018,16300,16300,-,16300,-,10500
393,10/09/2018,16300,16300,-,16300,-,10500
394,11/09/2018,16300,16300,-,16300,-,10500
395,12/09/2018,16300,16300,-,16300,-,10500
396,13/09/2018,16300,16300,-,16300,-,10500
397,14/09/2018,16300,16300,-,16300,-,10500
398,17/09/2018,16300,16300,-,16300,-,10500
399,18/09/2018,16300,16300,-,16300,-,10500
400,19/09/2018,16300,16300,-,16300,-,10500
401,20/09/2018,16300,16300,-,16300,-,10500
402,21/09/2018,16300,16300,-,16300,-,10500
403,24/09/2018,16300,16300,-,16300,-,10500
404,25/09/2018,16300,16300,-,16300,-,10500
405,26/09/2018,16300,16300,-,16300,-,10500
406,27/09/2018,16300,16300,-,16300,-,10500
407,28/09/2018,16300,16300,-,16300,-,10500
408,01/10/2018,16300,16300,-,16300,-,10500
409,02/10/2018,16300,16300,-,16300,-,10500
410,03/10/2018,16300,16300,-,16300,-,10500
411,04/10/2018,16300,16300,-,16300,-,10500
412,05/10/2018,16300,16300,-,16300,-,10500
413,08/10/2018,16300,16300,-,16300,-,10500
414,09/10/2018,16300,16300,-,16300,-,10500
415,10/10/2018,16300,16300,-,16300,-,10500
416,11/10/2018,16300,16300,-,16300,-,10500
417,12/10/2018,16300,16300,-,16300,-,10500
418,15/10/2018,16300,16300,-,16300,-,10500
419,16/10/2018,16300,16300,-,16300,-,10500
420,17/10/2018,16300,16300,-,16300,-,10500
421,18/10/2018,16300,16300,-,16300,-,10500
422,19/10/2018,16300,16300,-,16300,-,10500
423,22/10/2018,16300,16300,-,16300,-,10500
424,23/10/2018,16300,16300,-,16300,-,10500
425,24/10/2018,16300,16300,16300.0,16300,-,10500
426,25/10/2018,16300,16300,16300.0,16300,-,10500
427,26/10/2018,16300,16300,16300.0,16300,-,11400
428,29/10/2018,16300,16300,16300.0,16300,-,11400
429,30/10/2018,16300,16300,16300.0,16300,-,11400
430,31/10/2018,16300,16300,16300.0,16300,-,10500
431,01/11/2018,16300,16300,16300.0,16300,-,11400
432,02/11/2018,16300,16300,-,16300,-,10500
433,05/11/2018,16300,16300,16300.0,16300,-,11400
434,06/11/2018,16300,16300,16300.0,16300,-,11400
435,07/11/2018,16300,16300,16300.0,16300,-,11400
436,08/11/2018,16300,16300,16300.0,16300,-,11400
437,09/11/2018,16300,16300,16300.0,16300,-,11400
438,12/11/2018,16300,16300,16300.0,16300,-,11400
439,13/11/2018,16300,16300,16300.0,16300,-,11400
440,14/11/2018,16300,16300,16300.0,16300,-,11400
441,15/11/2018,16300,16300,16300.0,16300,-,11400
442,16/11/2018,16300,16300,16300.0,16300,-,11400
443,19/11/2018,16300,16300,16300.0,16300,-,11400
444,20/11/2018,16300,16300,16300.0,16300,-,11400
445,21/11/2018,22800,22800,22800.0,22800,200,14700
446,22/11/2018,22800,22800,22800.0,22800,-,14700
447,23/11/2018,26200,26200,26200.0,26200,100,16800
448,26/11/2018,26200,26200,26200.0,26200,-,16800
449,27/11/2018,26200,26200,26200.0,26200,-,16800
450,28/11/2018,26200,26200,26200.0,26200,-,16800
451,29/11/2018,26200,26200,26200.0,26200,-,16800
452,30/11/2018,26200,26200,26200.0,26200,-,16800
453,03/12/2018,26200,26200,26200.0,26200,-,16800
454,04/12/2018,26200,26200,26200.0,26200,-,16800
455,05/12/2018,26200,26200,26200.0,26200,-,16800
456,06/12/2018,26200,26200,26200.0,26200,-,16800
457,07/12/2018,26200,26200,26200.0,26200,-,16800
458,10/12/2018,26200,26200,26200.0,26200,-,16800
459,11/12/2018,26200,26200,26200.0,26200,-,16800
460,12/12/2018,26200,26200,26200.0,26200,-,16800
461,13/12/2018,26200,26200,26200.0,26200,-,16800
462,14/12/2018,26200,26200,26200.0,26200,-,16800
463,17/12/2018,26200,26200,26200.0,26200,-,16800
464,18/12/2018,26200,26200,26200.0,26200,-,16800
465,19/12/2018,26200,26200,26200.0,26200,-,16800
466,20/12/2018,26200,26200,26200.0,26200,-,16800
467,21/12/2018,26200,26200,26200.0,26200,-,16800
468,24/12/2018,26200,26200,26200.0,26200,-,16800
469,25/12/2018,26200,26200,26200.0,26200,-,16800
470,26/12/2018,26200,26200,26200.0,26200,-,16800
471,27/12/2018,26200,26200,26200.0,26200,-,16800
472,28/12/2018,26200,26200,26200.0,26200,-,16800
473,02/01/2019,26200,26200,26200.0,26200,-,16800
474,03/01/2019,26200,26200,26200.0,26200,-,16800
475,04/01/2019,26200,26200,26200.0,26200,-,16800
476,07/01/2019,26200,26200,26200.0,26200,-,16800
477,08/01/2019,26200,26200,26200.0,26200,-,16800
478,09/01/2019,26200,26200,26200.0,26200,-,16800
479,10/01/2019,26200,26200,26200.0,26200,-,16800
480,11/01/2019,26200,26200,26200.0,26200,-,16800
481,14/01/2019,26200,26200,26200.0,26200,-,16800
482,15/01/2019,26200,26200,26200.0,26200,-,16800
483,16/01/2019,26200,26200,26200.0,26200,-,16800
484,17/01/2019,26200,26200,26200.0,26200,-,16800
485,18/01/2019,26200,26200,26200.0,26200,-,16800
486,21/01/2019,26200,26200,26200.0,26200,-,16800
487,22/01/2019,26200,26200,26200.0,26200,-,16800
488,23/01/2019,26200,26200,26200.0,26200,-,16800
489,24/01/2019,26200,26200,26200.0,26200,-,16800
490,25/01/2019,26200,26200,26200.0,26200,-,16800
491,28/01/2019,26200,26200,26200.0,26200,-,16800
492,29/01/2019,26200,26200,26200.0,26200,-,16800
493,30/01/2019,26200,26200,26200.0,26200,-,16800
494,31/01/2019,26200,26200,26200.0,26200,-,16800
495,01/02/2019,26200,26200,26200.0,26200,-,16800
496,11/02/2019,26200,26200,26200.0,26200,-,16800
497,12/02/2019,26200,26200,26200.0,26200,-,16800
498,13/02/2019,26200,26200,26200.0,26200,-,16800
499,14/02/2019,26200,26200,26200.0,26200,-,16800
500,15/02/2019,26200,26200,26200.0,26200,-,16800
501,18/02/2019,26200,26200,26200.0,26200,-,16800
502,19/02/2019,26200,26200,26200.0,26200,-,16800
503,20/02/2019,26200,26200,26200.0,26200,-,16800
504,21/02/2019,26200,26200,26200.0,26200,-,16800
505,22/02/2019,26200,26200,26200.0,26200,-,16800
506,25/02/2019,26200,26200,26200.0,26200,-,16800
507,26/02/2019,26200,26200,26200.0,26200,-,16800
508,27/02/2019,26200,26200,26200.0,26200,-,16800
509,28/02/2019,26200,26200,26200.0,26200,-,16800
510,01/03/2019,26200,26200,26200.0,26200,-,16800
511,04/03/2019,26200,26200,26200.0,26200,-,16800
512,05/03/2019,26200,26200,26200.0,26200,-,16800
513,06/03/2019,26200,26200,26200.0,26200,-,16800
514,07/03/2019,26200,26200,26200.0,26200,-,16800
515,08/03/2019,26200,26200,26200.0,26200,-,16800
516,11/03/2019,26200,26200,26200.0,26200,-,16800
517,12/03/2019,26200,26200,26200.0,26200,-,16800
518,13/03/2019,26200,26200,26200.0,26200,-,16800
519,14/03/2019,26200,26200,26200.0,26200,-,16800
520,15/03/2019,26200,26200,26200.0,26200,-,16800
521,18/03/2019,26200,26200,26200.0,26200,-,16800
522,19/03/2019,26200,26200,26200.0,26200,-,16800
523,20/03/2019,26200,26200,26200.0,26200,-,16800
524,21/03/2019,26200,26200,26200.0,26200,-,16800
525,22/03/2019,26200,26200,26200.0,26200,-,16800
526,25/03/2019,26200,26200,26200.0,26200,-,16800
527,26/03/2019,26200,26200,26200.0,26200,-,16800
528,27/03/2019,26200,26200,26200.0,26200,-,16800
529,28/03/2019,26200,26200,26200.0,26200,-,16800
530,29/03/2019,26200,26200,26200.0,26200,-,16800
531,01/04/2019,26200,26200,26200.0,26200,-,16800
532,02/04/2019,26200,26200,26200.0,26200,-,16800
533,03/04/2019,26200,26200,26200.0,26200,-,16800
534,04/04/2019,26200,26200,26200.0,26200,-,16800
535,05/04/2019,26200,26200,26200.0,26200,-,16800
536,08/04/2019,26200,26200,26200.0,26200,-,16800
537,09/04/2019,26200,26200,26200.0,26200,-,16800
538,10/04/2019,26200,26200,26200.0,26200,-,16800
539,11/04/2019,26200,26200,26200.0,26200,-,16800
540,12/04/2019,26200,26200,26200.0,26200,-,16800
541,16/04/2019,26200,26200,26200.0,26200,-,16800
542,17/04/2019,26200,26200,26200.0,26200,-,16800
543,18/04/2019,26200,26200,26200.0,26200,-,16800
544,19/04/2019,26200,26200,26200.0,26200,-,16800
545,22/04/2019,26200,26200,26200.0,26200,-,16800
546,23/04/2019,26200,26200,26200.0,26200,-,16800
547,24/04/2019,26200,26200,26200.0,26200,-,16800
548,25/04/2019,26200,26200,26200.0,26200,-,16800
549,26/04/2019,26200,26200,26200.0,26200,-,16800
550,02/05/2019,26200,26200,26200.0,26200,-,16800
551,03/05/2019,26200,26200,26200.0,26200,-,16800
552,06/05/2019,26200,26200,26200.0,26200,-,16800
553,07/05/2019,26200,26200,26200.0,26200,-,16800
554,08/05/2019,26200,26200,26200.0,26200,-,16800
555,09/05/2019,26200,26200,26200.0,26200,-,16800
556,10/05/2019,26200,26200,26200.0,26200,-,16800
557,13/05/2019,26200,26200,26200.0,26200,-,16800
558,14/05/2019,26200,26200,26200.0,26200,-,16800
559,15/05/2019,26200,26200,26200.0,26200,-,16800
560,16/05/2019,26200,26200,26200.0,26200,-,16800
561,17/05/2019,26200,26200,26200.0,26200,-,16800
562,20/05/2019,26200,26200,26200.0,26200,-,16800
563,21/05/2019,26200,26200,26200.0,26200,-,16800
564,22/05/2019,26200,26200,26200.0,26200,-,16800
565,23/05/2019,26200,26200,26200.0,26200,-,16800
566,24/05/2019,26200,26200,26200.0,26200,-,16800
567,27/05/2019,26200,26200,26200.0,26200,-,16800
568,28/05/2019,26200,26200,26200.0,26200,-,16800
569,29/05/2019,26200,26200,26200.0,26200,-,16800
570,30/05/2019,26200,26200,26200.0,26200,-,16800
571,31/05/2019,26200,26200,26200.0,26200,-,16800
572,03/06/2019,26200,26200,26200.0,26200,-,16800
573,04/06/2019,26200,26200,26200.0,26200,-,16800
574,05/06/2019,26200,26200,26200.0,26200,-,16800
575,06/06/2019,26200,26200,26200.0,26200,-,16800
576,07/06/2019,26200,26200,26200.0,26200,-,16800
577,10/06/2019,26200,26200,26200.0,26200,-,16800
578,11/06/2019,26200,26200,26200.0,26200,-,16800
579,12/06/2019,26200,26200,26200.0,26200,-,16800
580,13/06/2019,26200,26200,26200.0,26200,-,16800
581,14/06/2019,26200,26200,26200.0,26200,-,16800
582,17/06/2019,26200,26200,26200.0,26200,-,16800
583,18/06/2019,26200,26200,26200.0,26200,-,16800
584,19/06/2019,26200,26200,26200.0,26200,-,16800
585,20/06/2019,26200,26200,26200.0,26200,-,16800
586,21/06/2019,26200,26200,26200.0,26200,-,16800
587,24/06/2019,26200,26200,26200.0,26200,-,16800
588,25/06/2019,26200,26200,26200.0,26200,-,16800
589,26/06/2019,26200,26200,26200.0,26200,-,16800
590,27/06/2019,26200,26200,26200.0,26200,-,16800
591,28/06/2019,26200,26200,26200.0,26200,-,16800
592,01/07/2019,26200,26200,26200.0,26200,-,16800
593,02/07/2019,26200,26200,26200.0,26200,-,16800
594,03/07/2019,26200,26200,26200.0,26200,-,16800
595,04/07/2019,26200,26200,26200.0,26200,-,16800
596,05/07/2019,26200,26200,26200.0,26200,-,16800
597,08/07/2019,26200,26200,26200.0,26200,-,16800
598,09/07/2019,26200,26200,26200.0,26200,-,16800
599,10/07/2019,26200,26200,26200.0,26200,-,16800
600,11/07/2019,26200,26200,26200.0,26200,-,16800
601,12/07/2019,26200,26200,26200.0,26200,-,16800
602,15/07/2019,24700,24700,24700.0,24700,-,17900
603,16/07/2019,24700,24700,24700.0,24700,-,17900
604,17/07/2019,24700,24700,24700.0,24700,-,17900
605,18/07/2019,24700,24700,24700.0,24700,-,17900
606,19/07/2019,24700,24700,24700.0,24700,-,17900
607,22/07/2019,24700,24700,24700.0,24700,-,17900
608,23/07/2019,24700,24700,24700.0,24700,-,17900
609,24/07/2019,24700,24700,24700.0,24700,-,17900
610,25/07/2019,24700,24700,24700.0,24700,-,17900
611,26/07/2019,24700,24700,24700.0,24700,-,17900
612,29/07/2019,24700,24700,24700.0,24700,-,17900
613,30/07/2019,24700,24700,24700.0,24700,-,17900
614,31/07/2019,24700,24700,24700.0,24700,-,17900
615,01/08/2019,24700,24700,24700.0,24700,-,17900
616,02/08/2019,24700,24700,24700.0,24700,-,17900
617,05/08/2019,24700,24700,24700.0,24700,-,17900
618,06/08/2019,24700,24700,24700.0,24700,-,17900
619,07/08/2019,24700,24700,24700.0,24700,-,17900
620,08/08/2019,24700,24700,24700.0,24700,-,17900
621,09/08/2019,24700,24700,24700.0,24700,-,17900
622,12/08/2019,24700,24700,24700.0,24700,-,17900
623,13/08/2019,24700,24700,24700.0,24700,-,17900
624,14/08/2019,24700,24700,24700.0,24700,-,17900
625,15/08/2019,24700,24700,24700.0,24700,-,17900
626,16/08/2019,24700,24700,24700.0,24700,-,17900
627,19/08/2019,24700,24700,24700.0,24700,-,17900
628,20/08/2019,24700,24700,24700.0,24700,-,17900
629,21/08/2019,24700,24700,24700.0,24700,-,17900
630,22/08/2019,24700,24700,24700.0,24700,-,17900
631,23/08/2019,24700,24700,24700.0,24700,-,17900
632,26/08/2019,24700,24700,24700.0,24700,-,17900
633,27/08/2019,24700,24700,24700.0,24700,-,17900
634,28/08/2019,24700,24700,24700.0,24700,-,17900
635,29/08/2019,24700,24700,24700.0,24700,-,17900
636,30/08/2019,24700,24700,24700.0,24700,-,17900
637,03/09/2019,24700,24700,24700.0,24700,-,17900
638,04/09/2019,24700,24700,24700.0,24700,-,17900
639,05/09/2019,24700,24700,24700.0,24700,-,16800
640,06/09/2019,24700,24700,24700.0,24700,-,16800
641,09/09/2019,24700,24700,24700.0,24700,-,16800
642,10/09/2019,24700,24700,24700.0,24700,-,16800
643,11/09/2019,24700,24700,24700.0,24700,-,16800
644,12/09/2019,24700,24700,24700.0,24700,-,16800
645,13/09/2019,24700,24700,24700.0,24700,-,16800
646,16/09/2019,24700,24700,24700.0,24700,-,16800
647,17/09/2019,24700,24700,24700.0,24700,-,16800
648,18/09/2019,24700,24700,24700.0,24700,-,16800
649,19/09/2019,24700,24700,24700.0,24700,-,16800
650,20/09/2019,24700,24700,24700.0,24700,-,16800
651,23/09/2019,24700,24700,24700.0,24700,-,16800
652,24/09/2019,24700,24700,24700.0,24700,-,16800
653,25/09/2019,24700,24700,24700.0,24700,-,16800
654,26/09/2019,24700,24700,24700.0,24700,-,16800
655,27/09/2019,24700,24700,24700.0,24700,-,16800
656,30/09/2019,24700,24700,24700.0,24700,-,16800
657,01/10/2019,24700,24700,24700.0,24700,-,16800
658,02/10/2019,24700,24700,24700.0,24700,-,16800
659,03/10/2019,24700,24700,24700.0,24700,-,16800
660,04/10/2019,24700,24700,24700.0,24700,-,16800
661,07/10/2019,24700,24700,24700.0,24700,-,16800
662,08/10/2019,24700,24700,24700.0,24700,-,16800
663,09/10/2019,24700,24700,24700.0,24700,-,16800
664,10/10/2019,24700,24700,24700.0,24700,-,16800
665,11/10/2019,24700,24700,24700.0,24700,-,16800
666,14/10/2019,24700,24700,24700.0,24700,-,16800
667,15/10/2019,24700,24700,24700.0,24700,-,16800
668,16/10/2019,24700,24700,24700.0,24700,-,16800
669,17/10/2019,24700,24700,24700.0,24700,-,16800
670,18/10/2019,24700,24700,24700.0,24700,-,16800
671,21/10/2019,24700,24700,24700.0,24700,-,16800
672,22/10/2019,24700,24700,24700.0,24700,-,16800
673,23/10/2019,24700,24700,24700.0,24700,-,16800
674,24/10/2019,24700,24700,24700.0,24700,-,16800
675,25/10/2019,24700,24700,24700.0,24700,-,16800
676,28/10/2019,24700,24700,24700.0,24700,-,16800
677,29/10/2019,24700,24700,24700.0,24700,-,16800
678,30/10/2019,24700,24700,24700.0,24700,-,16800
679,31/10/2019,24700,24700,24700.0,24700,-,16800
680,01/11/2019,24700,24700,24700.0,24700,-,16800
681,04/11/2019,24700,24700,24700.0,24700,-,16800
682,05/11/2019,24700,24700,24700.0,24700,-,16800
683,06/11/2019,24700,24700,24700.0,24700,-,16800
684,07/11/2019,24700,24700,24700.0,24700,-,16800
685,08/11/2019,24700,24700,24700.0,24700,-,16800
686,11/11/2019,24700,24700,24700.0,24700,-,16800
687,12/11/2019,24700,24700,24700.0,24700,-,16800
688,13/11/2019,24700,24700,24700.0,24700,-,16800
689,14/11/2019,24700,24700,24700.0,24700,-,16800
690,15/11/2019,24700,24700,24700.0,24700,-,16800
691,18/11/2019,24700,24700,24700.0,24700,-,16800
692,19/11/2019,24700,24700,24700.0,24700,-,16800
693,20/11/2019,24700,24700,24700.0,24700,-,16800
694,21/11/2019,24700,24700,24700.0,24700,-,16800
695,22/11/2019,24700,24700,24700.0,24700,-,16800
696,25/11/2019,24700,24700,24700.0,24700,-,16800
697,26/11/2019,24700,24700,24700.0,24700,-,16800
698,27/11/2019,24700,24700,24700.0,24700,-,16800
699,28/11/2019,24700,24700,24700.0,24700,-,16800
700,29/11/2019,24700,24700,24700.0,24700,-,16800
701,02/12/2019,24700,24700,24700.0,24700,-,16800
702,03/12/2019,24700,24700,24700.0,24700,-,16800
703,04/12/2019,24700,24700,24700.0,24700,-,16800
704,05/12/2019,24700,24700,24700.0,24700,-,16800
705,06/12/2019,24700,24700,24700.0,24700,-,16800
706,09/12/2019,24700,24700,24700.0,24700,-,16800
707,10/12/2019,24700,24700,24700.0,24700,-,16800
708,11/12/2019,24700,24700,24700.0,24700,-,16800
709,12/12/2019,24700,24700,24700.0,24700,-,16800
710,13/12/2019,24700,24700,24700.0,24700,-,16800
711,16/12/2019,24700,24700,24700.0,24700,-,16800
712,17/12/2019,24700,24700,24700.0,24700,-,16800
713,18/12/2019,24700,24700,24700.0,24700,-,16800
714,19/12/2019,24700,24700,24700.0,24700,-,16800
715,20/12/2019,24700,24700,24700.0,24700,-,16800
716,23/12/2019,24700,24700,24700.0,24700,-,16800
717,24/12/2019,24700,24700,24700.0,24700,-,16800
718,25/12/2019,24700,24700,24700.0,24700,-,16800
719,26/12/2019,24700,24700,24700.0,24700,-,16800
720,27/12/2019,24700,24700,24700.0,24700,-,16800
721,30/12/2019,24700,24700,24700.0,24700,-,16800
722,31/12/2019,24700,24700,24700.0,24700,-,16800
723,02/01/2020,24700,24700,24700.0,24700,-,16800
724,03/01/2020,24700,24700,24700.0,24700,-,16800
725,06/01/2020,24700,24700,24700.0,24700,-,16800
726,07/01/2020,24700,24700,24700.0,24700,-,16800
727,08/01/2020,24700,24700,24700.0,24700,-,16800
728,09/01/2020,24700,24700,24700.0,24700,-,16800
729,10/01/2020,24700,24700,24700.0,24700,-,16800
730,13/01/2020,24700,24700,24700.0,24700,-,16800
731,14/01/2020,24700,24700,24700.0,24700,-,16800
732,15/01/2020,24700,24700,24700.0,24700,-,16800
733,16/01/2020,24700,24700,24700.0,24700,-,16800
734,17/01/2020,24700,24700,24700.0,24700,-,16800
735,20/01/2020,24700,24700,24700.0,24700,-,16800
736,21/01/2020,24700,24700,24700.0,24700,-,16800
737,22/01/2020,24700,24700,24700.0,24700,-,16800
738,30/01/2020,24700,24700,24700.0,24700,-,16800
739,31/01/2020,24700,24700,24700.0,24700,-,16800
740,03/02/2020,24700,24700,24700.0,24700,-,16800
741,04/02/2020,24700,24700,24700.0,24700,-,16800
742,05/02/2020,24700,24700,24700.0,24700,-,16800
743,06/02/2020,24700,24700,24700.0,24700,-,16800
744,07/02/2020,24700,24700,24700.0,24700,-,16800
745,10/02/2020,24700,24700,24700.0,24700,-,16800
746,11/02/2020,24700,24700,24700.0,24700,-,16800
747,12/02/2020,24700,24700,24700.0,24700,-,16800
748,13/02/2020,24700,24700,24700.0,24700,-,16800
749,14/02/2020,24700,24700,24700.0,24700,-,16800
750,17/02/2020,24700,24700,24700.0,24700,-,16800
751,18/02/2020,24700,24700,24700.0,24700,-,16800
752,19/02/2020,24700,24700,24700.0,24700,-,16800
753,20/02/2020,24700,24700,24700.0,24700,-,16800
754,21/02/2020,24700,24700,24700.0,24700,-,16800
755,24/02/2020,24700,24700,24700.0,24700,-,16800
756,25/02/2020,24700,24700,24700.0,24700,-,16800
757,26/02/2020,24700,24700,24700.0,24700,-,16800
758,27/02/2020,24700,24700,24700.0,24700,-,16800
759,28/02/2020,24700,24700,24700.0,24700,-,16800
760,02/03/2020,24700,24700,24700.0,24700,-,16800
761,03/03/2020,24700,24700,24700.0,24700,-,16800
762,04/03/2020,24700,24700,24700.0,24700,-,16800
763,05/03/2020,24700,24700,24700.0,24700,-,16800
764,06/03/2020,24700,24700,24700.0,24700,-,16800
765,09/03/2020,24700,24700,24700.0,24700,-,16800
766,10/03/2020,24700,24700,24700.0,24700,-,16800
767,11/03/2020,24700,24700,24700.0,24700,-,16800
768,12/03/2020,24700,24700,24700.0,24700,-,16800
769,13/03/2020,24700,24700,24700.0,24700,-,16800
770,16/03/2020,24700,24700,24700.0,24700,-,16800
771,17/03/2020,24700,24700,24700.0,24700,-,16800
772,18/03/2020,24700,24700,24700.0,24700,-,16800
773,19/03/2020,24700,24700,24700.0,24700,-,16800
774,20/03/2020,24700,24700,24700.0,24700,-,16800
775,23/03/2020,24700,24700,24700.0,24700,-,16800
776,24/03/2020,24700,24700,24700.0,24700,-,16800
777,25/03/2020,24700,24700,24700.0,24700,-,16800
778,26/03/2020,24700,24700,24700.0,24700,-,16800
779,27/03/2020,24700,24700,24700.0,24700,-,16800
780,30/03/2020,24700,24700,24700.0,24700,-,16800
781,31/03/2020,24700,24700,24700.0,24700,-,16800
782,01/04/2020,24700,24700,24700.0,24700,-,16800
783,03/04/2020,24700,24700,24700.0,24700,-,16800
784,06/04/2020,24700,24700,24700.0,24700,-,16800
785,07/04/2020,24700,24700,24700.0,24700,-,16800
786,08/04/2020,24700,24700,24700.0,24700,-,16800
787,09/04/2020,24700,24700,24700.0,24700,-,16800
788,10/04/2020,24700,24700,24700.0,24700,-,16800
789,13/04/2020,24700,24700,24700.0,24700,-,16800
790,14/04/2020,24700,24700,24700.0,24700,-,16800
791,15/04/2020,24700,24700,24700.0,24700,-,16800
792,16/04/2020,24700,24700,24700.0,24700,-,17900
793,17/04/2020,24700,24700,24700.0,24700,-,16800
794,20/04/2020,24700,24700,24700.0,24700,-,16800
795,21/04/2020,24700,24700,24700.0,24700,-,16800
796,22/04/2020,24700,24700,24700.0,24700,-,16800
797,23/04/2020,24700,24700,24700.0,24700,-,16800
798,24/04/2020,24700,24700,24700.0,24700,-,16800
799,27/04/2020,24700,24700,24700.0,24700,-,16800
800,28/04/2020,24700,24700,24700.0,24700,-,16800
801,29/04/2020,24700,24700,24700.0,24700,-,16800
802,04/05/2020,24700,24700,24700.0,24700,-,16800
803,05/05/2020,24700,24700,24700.0,24700,-,16800
804,06/05/2020,24700,24700,24700.0,24700,-,16800
805,07/05/2020,24700,24700,24700.0,24700,-,16800
806,08/05/2020,24700,24700,24700.0,24700,-,16800
807,11/05/2020,24700,24700,24700.0,24700,-,16800
808,12/05/2020,24700,24700,24700.0,24700,-,16800
809,13/05/2020,24700,24700,24700.0,24700,-,16800
810,14/05/2020,24700,24700,24700.0,24700,-,16800
811,15/05/2020,24700,24700,24700.0,24700,-,16800
812,18/05/2020,24700,24700,24700.0,24700,-,16800
813,19/05/2020,24700,24700,24700.0,24700,-,16800
814,20/05/2020,24700,24700,24700.0,24700,-,16800
815,21/05/2020,24700,24700,24700.0,24700,-,16800
816,22/05/2020,24700,24700,24700.0,24700,-,16800
817,25/05/2020,24700,24700,24700.0,24700,-,16800
818,26/05/2020,24700,24700,24700.0,24700,-,16800
819,27/05/2020,24700,24700,24700.0,24700,-,16800
820,28/05/2020,24700,24700,24700.0,24700,-,16800
821,29/05/2020,20000,20000,20000.0,20000,1600,13600
822,01/06/2020,20000,20000,20000.0,20000,70,13600
823,02/06/2020,20000,20000,20000.0,20000,-,13600
824,03/06/2020,20000,20000,20000.0,20000,-,13600
825,04/06/2020,20000,20000,20000.0,20000,-,13600
826,05/06/2020,20000,20000,20000.0,20000,-,13600
827,08/06/2020,20000,20000,20000.0,20000,-,13600
828,09/06/2020,20000,20000,20000.0,20000,-,13600
829,10/06/2020,20000,20000,20000.0,20000,-,13600
830,11/06/2020,20000,20000,20000.0,20000,-,13600
831,12/06/2020,20000,20000,20000.0,20000,-,13600
832,15/06/2020,20000,20000,20000.0,20000,-,13600
833,16/06/2020,20000,20000,20000.0,20000,-,13600
834,17/06/2020,20000,20000,20000.0,20000,-,13600
835,18/06/2020,20000,20000,20000.0,20000,-,13600
836,19/06/2020,20000,20000,20000.0,20000,-,13600
837,22/06/2020,20000,20000,20000.0,20000,-,13600
838,23/06/2020,20000,20000,20000.0,20000,-,13600
839,24/06/2020,20000,20000,20000.0,20000,-,13600
840,25/06/2020,20000,20000,20000.0,20000,-,13600
841,26/06/2020,20000,20000,20000.0,20000,-,13600
842,29/06/2020,20000,20000,20000.0,20000,-,13600
843,30/06/2020,20000,20000,20000.0,20000,-,13600
844,01/07/2020,20000,20000,20000.0,20000,-,13600
845,02/07/2020,20000,20000,20000.0,20000,-,13600
846,03/07/2020,20000,20000,20000.0,20000,-,13600
847,06/07/2020,20000,20000,20000.0,20000,-,13600
848,07/07/2020,20000,20000,20000.0,20000,-,13600
849,08/07/2020,20000,20000,20000.0,20000,-,13600
850,09/07/2020,20000,20000,20000.0,20000,-,13600
851,10/07/2020,20000,20000,20000.0,20000,-,13600
852,13/07/2020,20000,20000,20000.0,20000,-,13600
853,14/07/2020,18500,18500,18500.0,18500,-,13600
854,15/07/2020,18500,18500,18500.0,18500,-,13600
855,16/07/2020,18500,18500,18500.0,18500,-,13600
856,17/07/2020,18500,18500,18500.0,18500,-,13600
857,20/07/2020,18500,18500,18500.0,18500,-,13600
858,21/07/2020,18500,18500,18500.0,18500,-,13600
859,22/07/2020,18500,18500,18500.0,18500,-,13600
860,23/07/2020,18500,18500,18500.0,18500,-,13600
861,24/07/2020,18500,18500,18500.0,18500,-,13600
862,27/07/2020,18500,18500,18500.0,18500,-,13600
863,28/07/2020,18500,18500,18500.0,18500,-,13600
864,29/07/2020,18500,18500,18500.0,18500,-,13600
865,30/07/2020,18500,18500,18500.0,18500,-,13600
866,31/07/2020,18500,18500,18500.0,18500,-,13600
867,03/08/2020,18500,18500,18500.0,18500,-,13600
868,04/08/2020,18500,18500,18500.0,18500,-,13600
869,05/08/2020,18500,18500,18500.0,18500,-,13600
870,06/08/2020,18500,18500,18500.0,18500,-,13600
871,07/08/2020,18500,18500,18500.0,18500,-,13600
872,10/08/2020,18500,18500,18500.0,18500,-,13600
873,11/08/2020,18500,18500,18500.0,18500,-,13600
874,12/08/2020,18500,18500,18500.0,18500,-,13600
875,13/08/2020,18500,18500,18500.0,18500,-,13600
876,14/08/2020,18500,18500,18500.0,18500,-,13600
877,17/08/2020,18500,18500,18500.0,18500,-,13600
878,18/08/2020,18500,18500,18500.0,18500,-,13600
879,19/08/2020,18500,18500,18500.0,18500,-,13600
880,20/08/2020,18500,18500,18500.0,18500,-,13600
881,21/08/2020,18500,18500,18500.0,18500,-,13600
882,24/08/2020,18500,18500,18500.0,18500,-,13600
883,25/08/2020,18500,18500,18500.0,18500,-,13600
884,26/08/2020,18500,18500,18500.0,18500,-,13600
885,27/08/2020,18500,18500,18500.0,18500,-,13600
886,28/08/2020,18500,18500,18500.0,18500,-,13600
887,31/08/2020,18500,18500,18500.0,18500,-,13600
888,01/09/2020,18500,18500,18500.0,18500,-,13600
889,03/09/2020,18500,18500,18500.0,18500,-,13600
890,04/09/2020,18500,18500,18500.0,18500,-,13600
891,07/09/2020,18500,18500,18500.0,18500,-,13600
892,08/09/2020,18500,18500,18500.0,18500,-,13600
893,09/09/2020,18500,18500,18500.0,18500,-,13600
894,10/09/2020,18500,18500,18500.0,18500,-,13600
895,11/09/2020,18500,18500,18500.0,18500,-,13600
896,14/09/2020,18500,18500,18500.0,18500,-,13600
897,15/09/2020,18500,18500,18500.0,18500,-,13600
898,16/09/2020,18500,18500,18500.0,18500,-,13600
899,17/09/2020,18500,18500,18500.0,18500,-,13600
900,18/09/2020,18500,18500,18500.0,18500,-,13600
901,21/09/2020,18500,18500,18500.0,18500,-,13600
902,22/09/2020,18500,18500,18500.0,18500,-,13600
903,23/09/2020,18500,18500,18500.0,18500,-,13600
904,24/09/2020,18500,18500,18500.0,18500,-,13600
905,25/09/2020,18500,18500,18500.0,18500,-,13600
906,28/09/2020,18500,18500,18500.0,18500,-,13600
907,29/09/2020,18500,18500,18500.0,18500,-,13600
908,30/09/2020,18500,18500,18500.0,18500,-,13600
909,01/10/2020,18500,18500,18500.0,18500,-,13600
910,02/10/2020,18500,18500,18500.0,18500,-,13600
911,05/10/2020,18500,18500,18500.0,18500,-,13600
912,06/10/2020,18500,18500,18500.0,18500,-,13600
913,07/10/2020,18500,18500,18500.0,18500,-,13600
914,08/10/2020,18500,18500,18500.0,18500,-,13600
915,09/10/2020,18500,18500,18500.0,18500,-,13600
916,12/10/2020,18500,18500,18500.0,18500,-,13600
917,13/10/2020,18500,18500,18500.0,18500,-,13600
918,14/10/2020,18500,18500,18500.0,18500,-,13600
919,15/10/2020,18500,18500,18500.0,18500,-,13600
920,16/10/2020,18500,18500,18500.0,18500,-,13600
921,19/10/2020,18500,18500,18500.0,18500,-,13600
922,20/10/2020,18500,18500,18500.0,18500,-,13600
923,21/10/2020,18500,18500,18500.0,18500,-,13600
924,22/10/2020,18500,18500,18500.0,18500,-,13600
925,23/10/2020,18500,18500,18500.0,18500,-,13600
926,26/10/2020,18500,18500,18500.0,18500,-,13600
927,27/10/2020,18500,18500,18500.0,18500,-,13600
928,28/10/2020,18500,18500,18500.0,18500,-,13600
929,29/10/2020,18500,18500,18500.0,18500,-,13600
930,30/10/2020,18500,18500,18500.0,18500,-,13600
931,02/11/2020,18500,18500,18500.0,18500,-,13600
932,03/11/2020,18500,18500,18500.0,18500,-,13600
933,04/11/2020,18500,18500,18500.0,18500,-,13600
934,05/11/2020,18500,18500,18500.0,18500,-,13600
935,06/11/2020,18500,18500,18500.0,18500,-,13600
936,09/11/2020,18500,18500,18500.0,18500,-,13600
937,10/11/2020,18500,18500,18500.0,18500,-,13600
938,11/11/2020,18500,18500,18500.0,18500,-,13600
939,12/11/2020,18500,18500,18500.0,18500,-,13600
940,13/11/2020,18500,18500,18500.0,18500,-,13600
941,16/11/2020,18500,18500,18500.0,18500,-,13600
942,17/11/2020,18500,18500,18500.0,18500,-,13600
943,18/11/2020,18500,18500,18500.0,18500,-,13600
944,19/11/2020,18500,18500,18500.0,18500,-,13600
945,20/11/2020,18500,18500,18500.0,18500,-,13600
946,23/11/2020,18500,18500,-,18500,-,13600
947,24/11/2020,18500,18500,18500.0,18500,-,13600
948,25/11/2020,18500,18500,18500.0,18500,-,13600
949,26/11/2020,18500,18500,18500.0,18500,-,13600
950,27/11/2020,18500,18500,18500.0,18500,-,13600
951,30/11/2020,18500,18500,18500.0,18500,-,13600
952,01/12/2020,18500,18500,18500.0,18500,-,13600
953,02/12/2020,18500,18500,18500.0,18500,-,13600
954,03/12/2020,18500,18500,18500.0,18500,-,13600
955,04/12/2020,18500,18500,18500.0,18500,-,13600
956,07/12/2020,18500,18500,18500.0,18500,-,13600
957,08/12/2020,18500,18500,18500.0,18500,-,13600
958,09/12/2020,18500,18500,18500.0,18500,-,13600
959,10/12/2020,18500,18500,18500.0,18500,-,13600
960,11/12/2020,18500,18500,18500.0,18500,-,13600
961,14/12/2020,18500,18500,18500.0,18500,-,13600
962,15/12/2020,18500,18500,18500.0,18500,-,13600
963,16/12/2020,18500,18500,18500.0,18500,-,13600
964,17/12/2020,18500,18500,18500.0,18500,-,13600
965,18/12/2020,18500,18500,18500.0,18500,-,13600
966,21/12/2020,18500,18500,18500.0,18500,-,13600
967,22/12/2020,18500,18500,18500.0,18500,-,13600
968,23/12/2020,18500,18500,18500.0,18500,-,13600
969,24/12/2020,18500,18500,18500.0,18500,-,13600
970,25/12/2020,18500,18500,18500.0,18500,-,13600
971,28/12/2020,18500,18500,18500.0,18500,-,13600
972,29/12/2020,18500,18500,18500.0,18500,-,13600
973,30/12/2020,18500,18500,18500.0,18500,-,13600
974,31/12/2020,18500,18500,18500.0,18500,-,13600
975,04/01/2021,18500,18500,18500.0,18500,-,13600
976,05/01/2021,18500,18500,18500.0,18500,-,13600
977,06/01/2021,18500,18500,18500.0,18500,-,13600
978,07/01/2021,18500,18500,18500.0,18500,-,13600
979,08/01/2021,18500,18500,18500.0,18500,-,13600
980,11/01/2021,18500,18500,18500.0,18500,-,13600
981,12/01/2021,18500,18500,18500.0,18500,-,13600
982,13/01/2021,18500,18500,18500.0,18500,-,13600
983,14/01/2021,18500,18500,18500.0,18500,-,13600
984,15/01/2021,18500,18500,18500.0,18500,-,13600
985,18/01/2021,18500,18500,18500.0,18500,-,13600
986,19/01/2021,18500,18500,18500.0,18500,-,13600
987,20/01/2021,18500,18500,18500.0,18500,-,13600
988,21/01/2021,18500,18500,18500.0,18500,-,13600
989,22/01/2021,18500,18500,18500.0,18500,-,13600
990,25/01/2021,18500,18500,18500.0,18500,-,13600
991,26/01/2021,18500,18500,18500.0,18500,-,13600
992,27/01/2021,18500,18500,18500.0,18500,-,13600
993,28/01/2021,18500,18500,18500.0,18500,-,13600
994,29/01/2021,18500,18500,18500.0,18500,-,13600
995,01/02/2021,18500,18500,18500.0,18500,-,13600
996,02/02/2021,18500,18500,18500.0,18500,-,13600
997,03/02/2021,18500,18500,18500.0,18500,-,13600
998,04/02/2021,18500,18500,18500.0,18500,-,13600
999,05/02/2021,18500,18500,18500.0,18500,-,13600
1000,08/02/2021,18500,18500,18500.0,18500,-,13600
1001,09/02/2021,18500,18500,18500.0,18500,-,13600
1002,17/02/2021,18500,18500,18500.0,18500,-,13600
1003,18/02/2021,18500,18500,18500.0,18500,-,13600
1004,19/02/2021,18500,18500,18500.0,18500,-,13600
1005,22/02/2021,18500,18500,18500.0,18500,-,13600
1006,23/02/2021,18500,18500,18500.0,18500,-,13600
1007,24/02/2021,18500,18500,18500.0,18500,-,13600
1008,25/02/2021,18500,18500,18500.0,18500,-,13600
1009,26/02/2021,18500,18500,18500.0,18500,-,13600
1010,01/03/2021,18500,18500,18500.0,18500,-,13600
1011,02/03/2021,18500,18500,18500.0,18500,-,13600
1012,03/03/2021,18500,18500,18500.0,18500,-,13600
1013,04/03/2021,18500,18500,18500.0,18500,-,13600
1014,05/03/2021,18500,18500,18500.0,18500,-,13600
1015,08/03/2021,18500,18500,18500.0,18500,-,13600
1016,09/03/2021,18500,18500,18500.0,18500,-,13600
1017,10/03/2021,18500,18500,18500.0,18500,-,13600
1018,11/03/2021,18500,18500,18500.0,18500,-,13600
1019,12/03/2021,18500,18500,18500.0,18500,-,13600
1020,15/03/2021,18500,18500,18500.0,18500,-,13600
1021,16/03/2021,18500,18500,18500.0,18500,-,13600
1022,17/03/2021,18500,18500,18500.0,18500,-,13600
1023,18/03/2021,18500,18500,18500.0,18500,-,13600
1024,19/03/2021,18500,18500,18500.0,18500,-,13600
1025,22/03/2021,18500,18500,18500.0,18500,-,13600
1026,23/03/2021,18500,18500,18500.0,18500,-,13600
1027,24/03/2021,18500,18500,18500.0,18500,-,13600
1028,25/03/2021,18500,18500,18500.0,18500,-,13600
1029,26/03/2021,18500,18500,18500.0,18500,-,13600
1030,29/03/2021,18500,18500,18500.0,18500,-,13600
1031,30/03/2021,18500,18500,18500.0,18500,-,13600
1032,31/03/2021,18500,18500,18500.0,18500,-,13600
1033,01/04/2021,18500,18500,18500.0,18500,-,13600
1034,02/04/2021,18500,18500,18500.0,18500,-,13600
1035,05/04/2021,18500,18500,18500.0,18500,-,13600
1036,06/04/2021,18500,18500,18500.0,18500,-,13600
1037,07/04/2021,18500,18500,18500.0,18500,-,13600
1038,08/04/2021,18500,18500,18500.0,18500,-,13600
1039,09/04/2021,18500,18500,18500.0,18500,-,13600
1040,12/04/2021,18500,18500,18500.0,18500,-,13600
1041,13/04/2021,18500,18500,18500.0,18500,-,13600
1042,14/04/2021,18500,18500,18500.0,18500,-,13600
1043,15/04/2021,18500,18500,18500.0,18500,-,13600
1044,16/04/2021,18500,18500,18500.0,18500,-,13600
1045,19/04/2021,18500,18500,18500.0,18500,-,13600
1046,20/04/2021,18500,18500,18500.0,18500,-,13600
1047,22/04/2021,18500,18500,18500.0,18500,-,13600
1048,23/04/2021,18500,18500,18500.0,18500,-,13600
1049,26/04/2021,18500,18500,18500.0,18500,-,13600
1050,27/04/2021,18500,18500,18500.0,18500,-,13600
1051,28/04/2021,18500,18500,18500.0,18500,-,13600
1052,29/04/2021,18500,18500,18500.0,18500,-,13600
1053,04/05/2021,18500,18500,18500.0,18500,-,13600
1054,05/05/2021,18500,18500,18500.0,18500,-,13600
1055,06/05/2021,18500,18500,18500.0,18500,-,13600
1056,07/05/2021,11100,11100,11100.0,11100,7700,8200
1057,10/05/2021,11100,11100,11100.0,11100,35,8200
1058,11/05/2021,11100,11100,11100.0,11100,-,8200
1059,12/05/2021,11100,11100,11100.0,11100,-,8200
1060,13/05/2021,11100,11100,11100.0,11100,-,8200
1061,14/05/2021,11100,11100,11100.0,11100,-,8200
1062,17/05/2021,11100,11100,11100.0,11100,-,8200
1063,18/05/2021,11100,11100,11100.0,11100,-,8200
1064,19/05/2021,11100,11100,11100.0,11100,-,8200
1065,20/05/2021,11100,11100,11100.0,11100,-,8200
1066,21/05/2021,11100,11100,11100.0,11100,-,8200
1067,24/05/2021,11100,11100,11100.0,11100,-,8200
1068,25/05/2021,11100,11100,11100.0,11100,-,8200
1069,26/05/2021,11100,11100,11100.0,11100,-,8200
1070,27/05/2021,11100,11100,11100.0,11100,-,8200
1071,28/05/2021,11100,11100,11100.0,11100,-,8200
1072,31/05/2021,11100,11100,11100.0,11100,-,8200
1073,01/06/2021,11100,11100,11100.0,11100,-,8200
1074,02/06/2021,11100,11100,11100.0,11100,-,8200
1075,03/06/2021,11100,11100,11100.0,11100,-,8200
1076,04/06/2021,11100,11100,11100.0,11100,-,8200
1077,07/06/2021,11100,11100,11100.0,11100,-,8200
1078,08/06/2021,11100,11100,11100.0,11100,-,8200
1079,09/06/2021,11100,11100,11100.0,11100,-,8200
1080,10/06/2021,11100,11100,11100.0,11100,-,8200
1081,11/06/2021,11100,11100,11100.0,11100,-,8200
1082,14/06/2021,11100,11100,11100.0,11100,-,8200
1083,15/06/2021,11100,11100,11100.0,11100,-,8200
1084,16/06/2021,11100,11100,11100.0,11100,-,8200
1085,17/06/2021,11100,11100,11100.0,11100,-,8200
1086,18/06/2021,11100,11100,11100.0,11100,-,8200
1087,21/06/2021,15500,15500,15500.0,15500,3600,11400
1088,22/06/2021,15500,15500,15500.0,15500,-,11400
1089,23/06/2021,15500,15500,15500.0,15500,31,11400
1090,24/06/2021,15500,15500,15500.0,15500,-,11400
1091,25/06/2021,15500,15500,15500.0,15500,-,11400
1092,28/06/2021,15500,15500,15500.0,15500,-,11400
1093,29/06/2021,15500,15500,15500.0,15500,-,11400
1094,30/06/2021,15500,15500,15500.0,15500,-,11400
1095,01/07/2021,15500,15500,15500.0,15500,-,11400
1096,02/07/2021,15500,15500,15500.0,15500,-,11400
1097,05/07/2021,15500,15500,15500.0,15500,3000,11400
1098,06/07/2021,15500,15500,15500.0,15500,1000,11400
1099,07/07/2021,15500,15500,15500.0,15500,-,11400
1100,08/07/2021,15500,15500,15500.0,15500,-,11400
1101,09/07/2021,15500,15500,15500.0,15500,-,11400
1102,12/07/2021,15500,15500,15500.0,15500,-,11400
1103,13/07/2021,15500,15500,15500.0,15500,-,11400
1104,14/07/2021,15500,15500,15500.0,15500,-,11400
1105,15/07/2021,15500,15500,15500.0,15500,-,11400
1106,16/07/2021,15500,15500,15500.0,15500,-,11400
1107,19/07/2021,15500,15500,15500.0,15500,-,11400
1108,20/07/2021,15500,15500,15500.0,15500,-,11400
1109,21/07/2021,15500,15500,15500.0,15500,-,11400
1110,22/07/2021,15500,15500,15500.0,15500,-,11400
1111,23/07/2021,15500,15500,15500.0,15500,-,11400
1112,26/07/2021,15500,15500,15500.0,15500,-,11400
1113,27/07/2021,15500,15500,15500.0,15500,-,11400
1114,28/07/2021,15500,15500,15500.0,15500,-,11400
1115,29/07/2021,15500,15500,15500.0,15500,-,11400
1116,30/07/2021,15500,15500,15500.0,15500,-,11400
1117,02/08/2021,15500,15500,15500.0,15500,-,11400
1118,03/08/2021,15500,15500,15500.0,15500,-,11400
1119,04/08/2021,15500,15500,15500.0,15500,-,11400
1120,05/08/2021,15500,15500,15500.0,15500,-,11400
1121,06/08/2021,15500,15500,15500.0,15500,-,11400
1122,09/08/2021,15500,15500,15500.0,15500,-,11400
1123,10/08/2021,15500,15500,15500.0,15500,-,11400
1124,11/08/2021,15500,15500,15500.0,15500,-,11400
1125,12/08/2021,15500,15500,15500.0,15500,-,11400
1126,13/08/2021,15500,15500,15500.0,15500,-,11400
1127,16/08/2021,15500,15500,15500.0,15500,-,11400
1128,17/08/2021,15500,15500,15500.0,15500,-,11400
1129,18/08/2021,15500,15500,15500.0,15500,-,11400
1130,19/08/2021,15500,15500,15500.0,15500,-,11400
1131,20/08/2021,15500,15500,15500.0,15500,-,11400
1132,23/08/2021,15500,15500,15500.0,15500,-,11400
1133,24/08/2021,15500,15500,15500.0,15500,-,11400
1134,25/08/2021,15500,15500,15500.0,15500,-,11400
1135,26/08/2021,15500,15500,15500.0,15500,-,11400
1136,27/08/2021,15500,15500,15500.0,15500,-,11400
1137,30/08/2021,15500,15500,15500.0,15500,-,11400
1138,31/08/2021,15500,15500,15500.0,15500,-,11400
1139,01/09/2021,15500,15500,15500.0,15500,-,11400
1140,06/09/2021,15500,15500,15500.0,15500,-,11400
1141,07/09/2021,15500,15500,15500.0,15500,-,11400
1142,08/09/2021,15500,15500,15500.0,15500,-,11400
1143,09/09/2021,15500,15500,15500.0,15500,-,11400
1144,10/09/2021,15500,15500,15500.0,15500,-,11400
1145,13/09/2021,15500,15500,15500.0,15500,-,11400
1146,14/09/2021,15500,15500,15500.0,15500,-,11400
1147,15/09/2021,15500,15500,15500.0,15500,-,11400
1148,16/09/2021,15500,15500,15500.0,15500,-,11400
1149,17/09/2021,15500,15500,15500.0,15500,-,11400
1150,20/09/2021,15500,15500,15500.0,15500,-,11400
1151,21/09/2021,15500,15500,15500.0,15500,-,11400
1152,22/09/2021,15500,15500,15500.0,15500,-,11400
1153,23/09/2021,15500,15500,15500.0,15500,-,11400
1154,24/09/2021,15500,15500,15500.0,15500,-,11400
1155,27/09/2021,15500,15500,15500.0,15500,-,11400
1156,28/09/2021,15500,15500,15500.0,15500,-,11400
1157,29/09/2021,15500,15500,15500.0,15500,-,11400
1158,30/09/2021,15500,15500,15500.0,15500,-,11400
1159,01/10/2021,15500,15500,15500.0,15500,-,11400
1160,04/10/2021,15500,15500,15500.0,15500,-,11400
1161,05/10/2021,15500,15500,15500.0,15500,-,11400
1162,06/10/2021,15500,15500,15500.0,15500,-,11400
1163,07/10/2021,15500,15500,15500.0,15500,-,11400
1164,08/10/2021,15500,15500,15500.0,15500,-,11400
1165,11/10/2021,15500,15500,15500.0,15500,-,11400
1166,12/10/2021,15500,15500,15500.0,15500,-,11400
1167,13/10/2021,15500,15500,15500.0,15500,-,11400
1168,14/10/2021,15500,15500,15500.0,15500,-,11400
1169,15/10/2021,15500,15500,15500.0,15500,-,11400
1170,18/10/2021,15500,15500,15500.0,15500,-,11400
1171,19/10/2021,15500,15500,15500.0,15500,-,11400
1172,20/10/2021,15500,15500,15500.0,15500,-,11400
1173,21/10/2021,15500,15500,15500.0,15500,-,11400
1174,22/10/2021,15500,15500,15500.0,15500,-,11400
1175,25/10/2021,15500,15500,15500.0,15500,-,11400
1176,26/10/2021,15500,15500,15500.0,15500,-,11400
1177,27/10/2021,15500,15500,15500.0,15500,-,11400
1178,28/10/2021,15500,15500,15500.0,15500,-,11400
1179,29/10/2021,15500,15500,15500.0,15500,-,11400
1180,01/11/2021,15500,15500,15500.0,15500,-,11400
1181,02/11/2021,15500,15500,15500.0,15500,-,11400
1182,03/11/2021,15500,15500,15500.0,15500,-,11400
1183,04/11/2021,15500,15500,15500.0,15500,-,11400
1184,05/11/2021,15500,15500,15500.0,15500,-,11400
1185,08/11/2021,15500,15500,15500.0,15500,-,11400
1186,09/11/2021,15500,15500,15500.0,15500,-,11400
1187,10/11/2021,15500,15500,15500.0,15500,-,11400
1188,11/11/2021,15500,15500,15500.0,15500,-,11400
1189,12/11/2021,15500,15500,15500.0,15500,-,11400
1190,15/11/2021,15500,15500,15500.0,15500,-,11400
1191,16/11/2021,15500,15500,15500.0,15500,-,11400
1192,17/11/2021,15500,15500,15500.0,15500,-,11400
1193,18/11/2021,15500,15500,15500.0,15500,-,11400
1194,19/11/2021,15500,15500,15500.0,15500,-,11400
1195,22/11/2021,14000,14000,14000.0,14000,-,11400
1196,23/11/2021,14000,14000,14000.0,14000,-,11400
1197,24/11/2021,14000,14000,14000.0,14000,-,11400
1198,25/11/2021,14000,14000,14000.0,14000,-,11400
1199,26/11/2021,14000,14000,14000.0,14000,-,11400
1200,29/11/2021,14000,14000,14000.0,14000,-,12600
1201,30/11/2021,14000,14000,14000.0,14000,-,12600
1202,01/12/2021,14000,14000,14000.0,14000,-,12600
1203,02/12/2021,14000,14000,14000.0,14000,-,12600
1204,03/12/2021,14000,14000,14000.0,14000,-,12600
1205,06/12/2021,14000,14000,14000.0,14000,-,12600
1206,07/12/2021,14000,14000,14000.0,14000,-,12600
1207,08/12/2021,14000,14000,14000.0,14000,-,12600
1208,09/12/2021,14000,14000,14000.0,14000,-,12600
1209,10/12/2021,14000,14000,14000.0,14000,-,12600
1210,13/12/2021,14000,14000,14000.0,14000,-,12600
1211,14/12/2021,14000,14000,14000.0,14000,-,12600
1212,15/12/2021,14000,14000,14000.0,14000,-,12600
1213,16/12/2021,14000,14000,14000.0,14000,-,12600
1214,17/12/2021,14000,14000,14000.0,14000,-,12600
1215,20/12/2021,14000,14000,14000.0,14000,-,12600
1216,21/12/2021,14000,14000,14000.0,14000,-,12600
1217,22/12/2021,14000,14000,14000.0,14000,-,12600
1218,23/12/2021,14000,14000,14000.0,14000,-,12600
1219,24/12/2021,14000,14000,14000.0,14000,-,12600
1220,27/12/2021,14000,14000,14000.0,14000,-,12600
1221,28/12/2021,14000,14000,14000.0,14000,-,12600
1222,29/12/2021,14000,14000,14000.0,14000,-,12600
1223,30/12/2021,14000,14000,14000.0,14000,-,12600
1224,31/12/2021,14000,14000,14000.0,14000,-,12600
1225,04/01/2022,14000,14000,14000.0,14000,-,12600
1226,05/01/2022,14000,14000,14000.0,14000,-,12600
1227,06/01/2022,14000,14000,14000.0,14000,-,12600
1228,07/01/2022,14000,14000,14000.0,14000,-,12600
1229,10/01/2022,14000,14000,14000.0,14000,-,12600
1230,11/01/2022,14000,14000,14000.0,14000,-,12600
1231,12/01/2022,14000,14000,14000.0,14000,-,12600
1232,13/01/2022,14000,14000,14000.0,14000,-,12600
1233,14/01/2022,14000,14000,14000.0,14000,-,12600
1234,17/01/2022,14000,14000,14000.0,14000,-,12600
1235,18/01/2022,14000,14000,14000.0,14000,-,12600
1236,19/01/2022,14000,14000,14000.0,14000,-,12600
1237,20/01/2022,14000,14000,14000.0,14000,-,12600
1238,21/01/2022,14000,14000,14000.0,14000,-,12600
1239,24/01/2022,14000,14000,14000.0,14000,-,12600
1240,25/01/2022,14000,14000,14000.0,14000,-,12600
1241,26/01/2022,14000,14000,14000.0,14000,-,12600
1242,27/01/2022,14000,14000,14000.0,14000,-,12600
1243,28/01/2022,14000,14000,14000.0,14000,-,12600
1244,07/02/2022,14000,14000,14000.0,14000,-,14000
1245,08/02/2022,14000,14000,14000.0,14000,-,14000
1246,09/02/2022,14000,14000,14000.0,14000,-,14000
1247,10/02/2022,14000,14000,14000.0,14000,-,14000
1248,11/02/2022,14000,14000,14000.0,14000,-,14000
1249,14/02/2022,14000,14000,14000.0,14000,-,14000
